'Id: "COMMANDER Sample ID" Comment: "Integrate frame NIST_10832_241112_165947-000.gfrmwith cursor Full Frame Cursor #1" Operator: "Lab Manager" Anode: "Cu" Wavelength: "1.5406" Scantype: "2Theta (TwoTheta)" TimePerStep: "58" X: "-2" Y: "1" Z: "-0.15" 
20.00000 9.147
20.02000 10.653
20.04000 10.791
20.06000 10.565
20.08000 10.369
20.10000 10.448
20.12000 10.802
20.14000 11.127
20.16000 10.981
20.18000 10.644
20.20000 10.498
20.22000 10.800
20.24000 10.498
20.26000 10.377
20.28000 10.620
20.30000 11.172
20.32000 10.862
20.34000 10.495
20.36000 10.736
20.38000 10.751
20.40000 10.203
20.42000 10.900
20.44000 10.937
20.46000 10.795
20.48000 10.850
20.50000 10.570
20.52000 10.452
20.54000 10.926
20.56000 11.162
20.58000 11.274
20.60000 10.915
20.62000 10.697
20.64000 10.704
20.66000 11.281
20.68000 10.772
20.70000 10.616
20.72000 11.058
20.74000 11.236
20.76000 10.839
20.78000 10.735
20.80000 10.931
20.82000 10.968
20.84000 10.328
20.86000 10.615
20.88000 10.395
20.90000 10.698
20.92000 11.335
20.94000 11.104
20.96000 10.930
20.98000 10.805
21.00000 10.927
21.02000 10.988
21.04000 10.814
21.06000 11.555
21.08000 11.584
21.10000 12.508
21.12000 14.711
21.14000 18.706
21.16000 27.685
21.18000 40.690
21.20000 58.232
21.22000 76.185
21.24000 90.576
21.26000 101.706
21.28000 105.962
21.30000 101.389
21.32000 88.556
21.34000 67.059
21.36000 48.506
21.38000 34.010
21.40000 22.831
21.42000 16.023
21.44000 13.008
21.46000 11.663
21.48000 11.104
21.50000 11.309
21.52000 11.164
21.54000 10.773
21.56000 10.667
21.58000 10.650
21.60000 10.444
21.62000 10.436
21.64000 10.394
21.66000 10.333
21.68000 10.247
21.70000 10.143
21.72000 10.058
21.74000 10.418
21.76000 10.236
21.78000 10.248
21.80000 10.246
21.82000 10.284
21.84000 10.615
21.86000 10.430
21.88000 9.885
21.90000 9.873
21.92000 10.113
21.94000 10.249
21.96000 10.120
21.98000 10.095
22.00000 10.412
22.02000 10.165
22.04000 10.204
22.06000 10.108
22.08000 9.711
22.10000 9.746
22.12000 10.074
22.14000 9.939
22.16000 9.905
22.18000 9.977
22.20000 9.950
22.22000 10.126
22.24000 10.187
22.26000 9.865
22.28000 9.981
22.30000 10.068
22.32000 9.986
22.34000 9.814
22.36000 9.846
22.38000 9.817
22.40000 9.913
22.42000 9.871
22.44000 9.956
22.46000 9.749
22.48000 9.867
22.50000 9.935
22.52000 10.024
22.54000 9.805
22.56000 9.861
22.58000 9.935
22.60000 9.799
22.62000 9.946
22.64000 9.946
22.66000 9.905
22.68000 10.024
22.70000 9.797
22.72000 9.830
22.74000 9.780
22.76000 9.824
22.78000 9.863
22.80000 10.068
22.82000 9.857
22.84000 9.584
22.86000 9.510
22.88000 9.547
22.90000 10.075
22.92000 9.872
22.94000 9.836
22.96000 9.781
22.98000 9.696
23.00000 9.880
23.02000 9.925
23.04000 9.553
23.06000 9.749
23.08000 9.845
23.10000 9.645
23.12000 9.524
23.14000 9.850
23.16000 9.781
23.18000 9.807
23.20000 9.520
23.22000 9.656
23.24000 9.548
23.26000 9.634
23.28000 9.513
23.30000 9.407
23.32000 9.437
23.34000 9.335
23.36000 9.460
23.38000 9.687
23.40000 9.779
23.42000 9.640
23.44000 9.491
23.46000 9.305
23.48000 9.419
23.50000 9.593
23.52000 9.524
23.54000 9.512
23.56000 9.440
23.58000 9.613
23.60000 9.560
23.62000 9.507
23.64000 9.503
23.66000 9.421
23.68000 9.460
23.70000 9.772
23.72000 9.481
23.74000 9.525
23.76000 9.345
23.78000 9.487
23.80000 9.757
23.82000 9.561
23.84000 9.474
23.86000 9.657
23.88000 9.724
23.90000 9.388
23.92000 9.298
23.94000 9.427
23.96000 9.557
23.98000 9.550
24.00000 9.809
24.02000 9.574
24.04000 9.446
24.06000 9.289
24.08000 9.221
24.10000 9.303
24.12000 9.335
24.14000 9.371
24.16000 9.328
24.18000 9.399
24.20000 9.126
24.22000 9.301
24.24000 9.300
24.26000 9.373
24.28000 9.423
24.30000 9.387
24.32000 9.243
24.34000 9.332
24.36000 9.409
24.38000 9.593
24.40000 9.444
24.42000 9.439
24.44000 9.356
24.46000 9.425
24.48000 9.467
24.50000 9.534
24.52000 9.582
24.54000 9.496
24.56000 9.582
24.58000 9.375
24.60000 9.362
24.62000 9.124
24.64000 9.362
24.66000 9.138
24.68000 9.356
24.70000 9.330
24.72000 9.307
24.74000 9.302
24.76000 8.833
24.78000 9.282
24.80000 9.355
24.82000 9.115
24.84000 9.343
24.86000 9.274
24.88000 9.098
24.90000 9.335
24.92000 9.469
24.94000 9.269
24.96000 8.997
24.98000 9.059
25.00000 9.135
25.02000 9.094
25.04000 8.909
25.06000 9.046
25.08000 9.284
25.10000 9.378
25.12000 9.223
25.14000 9.325
25.16000 9.340
25.18000 9.301
25.20000 9.296
25.22000 9.232
25.24000 9.242
25.26000 9.288
25.28000 9.272
25.30000 9.149
25.32000 9.149
25.34000 9.039
25.36000 9.243
25.38000 9.121
25.40000 9.106
25.42000 9.172
25.44000 9.188
25.46000 9.006
25.48000 9.161
25.50000 9.068
25.52000 9.060
25.54000 9.215
25.56000 8.986
25.58000 9.168
25.60000 9.281
25.62000 9.283
25.64000 9.281
25.66000 8.930
25.68000 8.876
25.70000 9.321
25.72000 9.140
25.74000 8.900
25.76000 9.044
25.78000 8.944
25.80000 8.705
25.82000 9.087
25.84000 9.213
25.86000 8.973
25.88000 9.091
25.90000 9.029
25.92000 9.030
25.94000 9.132
25.96000 9.080
25.98000 9.213
26.00000 9.001
26.02000 8.913
26.04000 9.107
26.06000 9.046
26.08000 8.865
26.10000 8.847
26.12000 8.948
26.14000 8.901
26.16000 8.838
26.18000 9.161
26.20000 9.163
26.22000 8.929
26.24000 9.019
26.26000 9.118
26.28000 9.060
26.30000 8.870
26.32000 8.886
26.34000 8.987
26.36000 9.172
26.38000 8.933
26.40000 9.215
26.42000 8.922
26.44000 9.040
26.46000 9.267
26.48000 9.257
26.50000 9.214
26.52000 9.291
26.54000 9.111
26.56000 9.021
26.58000 8.886
26.60000 9.036
26.62000 8.818
26.64000 8.770
26.66000 8.767
26.68000 9.060
26.70000 8.916
26.72000 9.000
26.74000 8.893
26.76000 8.916
26.78000 8.896
26.80000 9.092
26.82000 8.987
26.84000 8.950
26.86000 8.784
26.88000 8.915
26.90000 8.917
26.92000 8.984
26.94000 8.659
26.96000 8.721
26.98000 8.879
27.00000 8.811
27.02000 8.727
27.04000 8.795
27.06000 8.984
27.08000 9.093
27.10000 8.678
27.12000 8.691
27.14000 8.761
27.16000 8.814
27.18000 8.912
27.20000 8.747
27.22000 8.602
27.24000 8.948
27.26000 8.873
27.28000 8.936
27.30000 9.015
27.32000 8.992
27.34000 9.146
27.36000 8.941
27.38000 8.688
27.40000 8.745
27.42000 8.971
27.44000 8.840
27.46000 8.646
27.48000 8.625
27.50000 8.766
27.52000 8.600
27.54000 8.799
27.56000 8.638
27.58000 8.816
27.60000 8.816
27.62000 8.607
27.64000 8.641
27.66000 8.758
27.68000 8.704
27.70000 8.714
27.72000 8.653
27.74000 8.627
27.76000 8.815
27.78000 8.591
27.80000 8.847
27.82000 8.754
27.84000 8.710
27.86000 8.879
27.88000 8.664
27.90000 8.545
27.92000 8.731
27.94000 8.678
27.96000 8.969
27.98000 8.807
28.00000 8.681
28.02000 8.435
28.04000 8.662
28.06000 8.852
28.08000 8.928
28.10000 8.475
28.12000 8.437
28.14000 8.412
28.16000 8.813
28.18000 8.795
28.20000 8.564
28.22000 8.434
28.24000 8.680
28.26000 8.669
28.28000 8.714
28.30000 8.727
28.32000 8.890
28.34000 8.668
28.36000 8.582
28.38000 8.434
28.40000 8.297
28.42000 8.429
28.44000 8.626
28.46000 8.671
28.48000 8.601
28.50000 8.711
28.52000 8.534
28.54000 8.480
28.56000 8.648
28.58000 8.542
28.60000 8.487
28.62000 8.445
28.64000 8.534
28.66000 8.498
28.68000 8.642
28.70000 8.583
28.72000 8.710
28.74000 8.601
28.76000 8.713
28.78000 8.677
28.80000 8.402
28.82000 8.651
28.84000 8.651
28.86000 8.440
28.88000 8.696
28.90000 8.751
28.92000 8.542
28.94000 8.596
28.96000 8.476
28.98000 8.337
29.00000 8.605
29.02000 8.411
29.04000 8.402
29.06000 8.709
29.08000 8.739
29.10000 8.776
29.12000 8.651
29.14000 8.785
29.16000 8.713
29.18000 8.625
29.20000 8.383
29.22000 8.724
29.24000 8.737
29.26000 8.474
29.28000 8.442
29.30000 8.672
29.32000 8.655
29.34000 8.687
29.36000 8.827
29.38000 8.939
29.40000 8.804
29.42000 8.746
29.44000 8.798
29.46000 8.715
29.48000 8.698
29.50000 8.648
29.52000 8.667
29.54000 8.710
29.56000 8.884
29.58000 8.690
29.60000 8.376
29.62000 8.337
29.64000 8.668
29.66000 8.648
29.68000 8.643
29.70000 8.729
29.72000 8.761
29.74000 8.796
29.76000 8.623
29.78000 8.706
29.80000 8.662
29.82000 8.848
29.84000 8.968
29.86000 8.890
29.88000 9.096
29.90000 9.088
29.92000 9.031
29.94000 9.032
29.96000 9.092
29.98000 8.991
30.00000 9.176
30.02000 9.453
30.04000 9.480
30.06000 9.738
30.08000 10.125
30.10000 10.767
30.12000 11.663
30.14000 13.294
30.16000 17.188
30.18000 26.811
30.20000 43.595
30.22000 66.460
30.24000 89.588
30.26000 112.210
30.28000 132.378
30.30000 147.747
30.32000 151.364
30.34000 142.858
30.36000 119.316
30.38000 93.572
30.40000 73.115
30.42000 55.840
30.44000 38.527
30.46000 24.310
30.48000 15.611
30.50000 12.238
30.52000 10.710
30.54000 9.912
30.56000 9.706
30.58000 9.351
30.60000 9.226
30.62000 9.282
30.64000 8.686
30.66000 8.800
30.68000 8.882
30.70000 8.807
30.72000 8.758
30.74000 8.468
30.76000 8.491
30.78000 8.558
30.80000 8.516
30.82000 8.455
30.84000 8.454
30.86000 8.374
30.88000 8.339
30.90000 8.478
30.92000 8.371
30.94000 8.260
30.96000 8.525
30.98000 8.378
31.00000 8.218
31.02000 8.389
31.04000 8.300
31.06000 8.340
31.08000 8.658
31.10000 8.340
31.12000 8.226
31.14000 8.553
31.16000 8.236
31.18000 8.270
31.20000 8.076
31.22000 8.261
31.24000 8.328
31.26000 8.058
31.28000 8.002
31.30000 8.299
31.32000 8.115
31.34000 8.220
31.36000 8.023
31.38000 8.013
31.40000 8.036
31.42000 7.978
31.44000 7.877
31.46000 8.130
31.48000 7.959
31.50000 7.967
31.52000 8.051
31.54000 8.088
31.56000 7.918
31.58000 7.970
31.60000 8.164
31.62000 8.107
31.64000 8.482
31.66000 8.276
31.68000 8.066
31.70000 7.910
31.72000 7.863
31.74000 7.874
31.76000 7.852
31.78000 7.928
31.80000 8.066
31.82000 7.972
31.84000 7.755
31.86000 8.027
31.88000 7.989
31.90000 8.059
31.92000 8.042
31.94000 7.906
31.96000 7.890
31.98000 7.832
32.00000 7.708
32.02000 7.998
32.04000 8.063
32.06000 7.966
32.08000 7.957
32.10000 7.880
32.12000 7.902
32.14000 8.051
32.16000 8.060
32.18000 7.682
32.20000 7.839
32.22000 7.741
32.24000 8.040
32.26000 8.083
32.28000 7.686
32.30000 7.895
32.32000 8.089
32.34000 8.049
32.36000 8.077
32.38000 7.960
32.40000 7.919
32.42000 7.784
32.44000 7.947
32.46000 7.998
32.48000 7.832
32.50000 7.767
32.52000 7.928
32.54000 7.793
32.56000 7.716
32.58000 7.809
32.60000 8.165
32.62000 8.273
32.64000 7.990
32.66000 7.753
32.68000 7.815
32.70000 7.834
32.72000 7.825
32.74000 7.686
32.76000 7.923
32.78000 7.814
32.80000 7.733
32.82000 7.743
32.84000 7.786
32.86000 7.667
32.88000 7.686
32.90000 7.723
32.92000 7.830
32.94000 7.802
32.96000 7.929
32.98000 7.634
33.00000 7.601
33.02000 7.446
33.04000 7.719
33.06000 7.760
33.08000 7.877
33.10000 7.732
33.12000 7.525
33.14000 7.716
33.16000 7.739
33.18000 7.720
33.20000 7.582
33.22000 7.534
33.24000 8.047
33.26000 7.842
33.28000 7.815
33.30000 7.683
33.32000 7.702
33.34000 7.814
33.36000 7.735
33.38000 7.821
33.40000 7.636
33.42000 7.440
33.44000 7.400
33.46000 7.408
33.48000 7.656
33.50000 7.717
33.52000 7.535
33.54000 7.577
33.56000 7.639
33.58000 7.769
33.60000 7.793
33.62000 7.593
33.64000 7.549
33.66000 7.824
33.68000 7.748
33.70000 7.687
33.72000 7.669
33.74000 7.558
33.76000 7.541
33.78000 7.389
33.80000 7.599
33.82000 7.496
33.84000 7.538
33.86000 7.725
33.88000 7.733
33.90000 7.607
33.92000 7.771
33.94000 7.422
33.96000 7.445
33.98000 7.475
34.00000 7.633
34.02000 7.575
34.04000 7.468
34.06000 7.365
34.08000 7.427
34.10000 7.431
34.12000 7.425
34.14000 7.546
34.16000 7.449
34.18000 7.689
34.20000 7.582
34.22000 7.458
34.24000 7.797
34.26000 7.492
34.28000 7.509
34.30000 7.377
34.32000 7.470
34.34000 7.471
34.36000 7.572
34.38000 7.587
34.40000 7.493
34.42000 7.559
34.44000 7.492
34.46000 7.635
34.48000 7.658
34.50000 7.611
34.52000 7.489
34.54000 7.399
34.56000 7.433
34.58000 7.360
34.60000 7.444
34.62000 7.592
34.64000 7.662
34.66000 7.506
34.68000 7.429
34.70000 7.373
34.72000 7.254
34.74000 7.430
34.76000 7.544
34.78000 7.304
34.80000 7.273
34.82000 7.354
34.84000 7.436
34.86000 7.419
34.88000 7.470
34.90000 7.507
34.92000 7.342
34.94000 7.154
34.96000 7.414
34.98000 7.611
35.00000 7.358
35.02000 7.213
35.04000 7.328
35.06000 7.522
35.08000 7.423
35.10000 7.348
35.12000 7.354
35.14000 7.243
35.16000 7.309
35.18000 7.312
35.20000 7.298
35.22000 7.160
35.24000 7.380
35.26000 7.662
35.28000 7.482
35.30000 7.340
35.32000 7.439
35.34000 7.480
35.36000 7.489
35.38000 7.544
35.40000 7.353
35.42000 7.275
35.44000 7.237
35.46000 7.609
35.48000 7.125
35.50000 7.383
35.52000 7.376
35.54000 7.441
35.56000 7.609
35.58000 7.346
35.60000 7.295
35.62000 7.292
35.64000 7.459
35.66000 7.439
35.68000 7.380
35.70000 7.253
35.72000 7.280
35.74000 7.228
35.76000 7.305
35.78000 7.545
35.80000 7.209
35.82000 7.271
35.84000 7.266
35.86000 7.294
35.88000 7.336
35.90000 7.344
35.92000 7.485
35.94000 7.185
35.96000 7.339
35.98000 7.291
36.00000 7.261
36.02000 7.450
36.04000 7.468
36.06000 7.432
36.08000 7.329
36.10000 7.173
36.12000 7.069
36.14000 7.111
36.16000 7.364
36.18000 7.365
36.20000 7.433
36.22000 7.437
36.24000 7.435
36.26000 7.359
36.28000 7.384
36.30000 7.506
36.32000 7.251
36.34000 7.378
36.36000 7.334
36.38000 7.027
36.40000 7.333
36.42000 7.272
36.44000 7.250
36.46000 7.134
36.48000 7.185
36.50000 7.229
36.52000 7.438
36.54000 7.283
36.56000 7.388
36.58000 7.249
36.60000 7.439
36.62000 7.333
36.64000 7.125
36.66000 7.021
36.68000 7.371
36.70000 7.466
36.72000 7.451
36.74000 7.293
36.76000 7.293
36.78000 7.206
36.80000 7.297
36.82000 7.342
36.84000 7.524
36.86000 7.359
36.88000 7.473
36.90000 7.252
36.92000 7.213
36.94000 7.337
36.96000 7.482
36.98000 7.523
37.00000 7.532
37.02000 7.272
37.04000 7.372
37.06000 7.576
37.08000 7.570
37.10000 7.881
37.12000 8.074
37.14000 8.128
37.16000 8.158
37.18000 8.520
37.20000 9.169
37.22000 10.975
37.24000 15.392
37.26000 23.340
37.28000 33.390
37.30000 42.998
37.32000 51.081
37.34000 57.764
37.36000 63.273
37.38000 66.557
37.40000 64.085
37.42000 54.133
37.44000 43.411
37.46000 36.269
37.48000 31.796
37.50000 27.003
37.52000 19.900
37.54000 13.394
37.56000 9.920
37.58000 8.443
37.60000 8.015
37.62000 7.639
37.64000 7.531
37.66000 7.652
37.68000 7.600
37.70000 7.420
37.72000 7.595
37.74000 7.295
37.76000 7.274
37.78000 7.162
37.80000 7.102
37.82000 7.304
37.84000 7.400
37.86000 7.201
37.88000 7.295
37.90000 7.174
37.92000 7.032
37.94000 6.985
37.96000 7.024
37.98000 7.096
38.00000 7.027
38.02000 6.981
38.04000 7.029
38.06000 6.954
38.08000 6.954
38.10000 7.054
38.12000 6.916
38.14000 6.961
38.16000 7.245
38.18000 7.069
38.20000 7.172
38.22000 7.111
38.24000 7.078
38.26000 7.073
38.28000 7.070
38.30000 6.919
38.32000 6.771
38.34000 6.691
38.36000 6.714
38.38000 6.786
38.40000 6.910
38.42000 7.013
38.44000 7.033
38.46000 6.953
38.48000 6.991
38.50000 7.009
38.52000 6.878
38.54000 6.863
38.56000 6.743
38.58000 6.890
38.60000 6.787
38.62000 6.666
38.64000 6.802
38.66000 6.717
38.68000 6.902
38.70000 6.789
38.72000 6.945
38.74000 6.872
38.76000 6.846
38.78000 6.818
38.80000 6.896
38.82000 6.927
38.84000 7.018
38.86000 6.826
38.88000 7.008
38.90000 6.909
38.92000 6.881
38.94000 6.858
38.96000 6.783
38.98000 6.877
39.00000 6.609
39.02000 6.714
39.04000 6.962
39.06000 6.998
39.08000 6.921
39.10000 6.887
39.12000 6.922
39.14000 6.785
39.16000 6.954
39.18000 6.648
39.20000 6.679
39.22000 6.911
39.24000 6.895
39.26000 6.957
39.28000 6.836
39.30000 6.814
39.32000 6.952
39.34000 7.009
39.36000 6.692
39.38000 6.832
39.40000 6.752
39.42000 6.635
39.44000 6.649
39.46000 6.790
39.48000 6.743
39.50000 6.739
39.52000 6.699
39.54000 6.684
39.56000 6.798
39.58000 6.776
39.60000 6.737
39.62000 6.825
39.64000 6.914
39.66000 6.694
39.68000 6.571
39.70000 6.769
39.72000 6.840
39.74000 6.854
39.76000 6.634
39.78000 6.666
39.80000 6.655
39.82000 6.630
39.84000 6.659
39.86000 6.703
39.88000 6.737
39.90000 6.813
39.92000 6.797
39.94000 6.695
39.96000 6.756
39.98000 6.577
40.00000 6.470
40.02000 6.522
40.04000 6.570
40.06000 6.621
40.08000 6.769
40.10000 6.618
40.12000 6.642
40.14000 6.780
40.16000 6.757
40.18000 6.627
40.20000 6.777
40.22000 6.774
40.24000 6.589
40.26000 6.632
40.28000 6.808
40.30000 6.693
40.32000 6.591
40.34000 6.489
40.36000 6.616
40.38000 6.780
40.40000 6.834
40.42000 6.649
40.44000 6.607
40.46000 6.581
40.48000 6.671
40.50000 6.381
40.52000 6.532
40.54000 6.560
40.56000 6.630
40.58000 6.671
40.60000 6.763
40.62000 6.810
40.64000 6.773
40.66000 6.378
40.68000 6.511
40.70000 6.728
40.72000 6.535
40.74000 6.568
40.76000 6.616
40.78000 6.631
40.80000 6.647
40.82000 6.641
40.84000 6.641
40.86000 6.761
40.88000 6.650
40.90000 6.597
40.92000 6.729
40.94000 6.583
40.96000 6.441
40.98000 6.722
41.00000 6.668
41.02000 6.544
41.04000 6.650
41.06000 6.696
41.08000 6.704
41.10000 6.544
41.12000 6.676
41.14000 6.579
41.16000 6.509
41.18000 6.673
41.20000 6.725
41.22000 6.613
41.24000 6.617
41.26000 6.513
41.28000 6.513
41.30000 6.643
41.32000 6.508
41.34000 6.722
41.36000 6.595
41.38000 6.554
41.40000 6.486
41.42000 6.537
41.44000 6.781
41.46000 6.645
41.48000 6.639
41.50000 6.696
41.52000 6.760
41.54000 6.715
41.56000 6.486
41.58000 6.404
41.60000 6.424
41.62000 6.554
41.64000 6.562
41.66000 6.458
41.68000 6.672
41.70000 6.703
41.72000 6.550
41.74000 6.457
41.76000 6.402
41.78000 6.406
41.80000 6.404
41.82000 6.453
41.84000 6.614
41.86000 6.692
41.88000 6.530
41.90000 6.659
41.92000 6.579
41.94000 6.456
41.96000 6.266
41.98000 6.454
42.00000 6.546
42.02000 6.588
42.04000 6.663
42.06000 6.628
42.08000 6.501
42.10000 6.642
42.12000 6.549
42.14000 6.487
42.16000 6.437
42.18000 6.332
42.20000 6.651
42.22000 6.344
42.24000 6.506
42.26000 6.507
42.28000 6.312
42.30000 6.455
42.32000 6.339
42.34000 6.433
42.36000 6.633
42.38000 6.476
42.40000 6.298
42.42000 6.342
42.44000 6.531
42.46000 6.612
42.48000 6.334
42.50000 6.538
42.52000 6.467
42.54000 6.289
42.56000 6.190
42.58000 6.214
42.60000 6.291
42.62000 6.380
42.64000 6.551
42.66000 6.593
42.68000 6.397
42.70000 6.496
42.72000 6.616
42.74000 6.306
42.76000 6.279
42.78000 6.373
42.80000 6.489
42.82000 6.418
42.84000 6.372
42.86000 6.499
42.88000 6.497
42.90000 6.373
42.92000 6.452
42.94000 6.296
42.96000 6.462
42.98000 6.536
43.00000 6.410
43.02000 6.403
43.04000 6.475
43.06000 6.595
43.08000 6.423
43.10000 6.748
43.12000 6.777
43.14000 6.809
43.16000 6.729
43.18000 6.762
43.20000 6.904
43.22000 6.939
43.24000 7.036
43.26000 7.276
43.28000 7.860
43.30000 9.351
43.32000 12.754
43.34000 18.030
43.36000 22.756
43.38000 26.903
43.40000 29.636
43.42000 31.731
43.44000 33.067
43.46000 32.747
43.48000 29.380
43.50000 24.543
43.52000 20.741
43.54000 19.299
43.56000 18.247
43.58000 16.046
43.60000 12.734
43.62000 10.025
43.64000 7.957
43.66000 7.090
43.68000 6.729
43.70000 6.701
43.72000 6.499
43.74000 6.454
43.76000 6.666
43.78000 6.674
43.80000 6.490
43.82000 6.469
43.84000 6.469
43.86000 6.266
43.88000 6.456
43.90000 6.565
43.92000 6.531
43.94000 6.527
43.96000 6.259
43.98000 6.476
44.00000 6.326
44.02000 6.292
44.04000 6.184
44.06000 6.236
44.08000 6.317
44.10000 6.139
44.12000 6.206
44.14000 6.364
44.16000 6.337
44.18000 6.510
44.20000 6.439
44.22000 6.472
44.24000 6.330
44.26000 6.269
44.28000 6.275
44.30000 6.215
44.32000 5.989
44.34000 6.204
44.36000 6.081
44.38000 6.191
44.40000 6.164
44.42000 6.054
44.44000 6.226
44.46000 6.222
44.48000 6.130
44.50000 6.261
44.52000 6.245
44.54000 6.106
44.56000 6.222
44.58000 6.174
44.60000 6.158
44.62000 6.236
44.64000 6.319
44.66000 6.287
44.68000 6.186
44.70000 6.217
44.72000 6.156
44.74000 6.243
44.76000 6.183
44.78000 6.035
44.80000 5.945
44.82000 6.244
44.84000 6.125
44.86000 6.301
44.88000 6.254
44.90000 6.088
44.92000 6.135
44.94000 6.148
44.96000 6.045
44.98000 6.128
45.00000 6.255
45.02000 6.135
45.04000 6.116
45.06000 5.981
45.08000 5.938
45.10000 6.035
45.12000 6.320
45.14000 6.270
45.16000 6.217
45.18000 6.197
45.20000 5.955
45.22000 5.937
45.24000 6.057
45.26000 5.956
45.28000 6.136
45.30000 6.124
45.32000 6.035
45.34000 5.959
45.36000 5.999
45.38000 5.989
45.40000 6.060
45.42000 6.009
45.44000 5.958
45.46000 5.970
45.48000 5.990
45.50000 6.119
45.52000 6.150
45.54000 6.049
45.56000 6.002
45.58000 5.960
45.60000 5.899
45.62000 6.089
45.64000 6.114
45.66000 6.012
45.68000 6.009
45.70000 6.184
45.72000 6.189
45.74000 6.120
45.76000 6.189
45.78000 6.228
45.80000 6.332
45.82000 6.216
45.84000 5.823
45.86000 6.001
45.88000 5.982
45.90000 5.929
45.92000 5.913
45.94000 5.914
45.96000 5.964
45.98000 5.890
46.00000 6.048
46.02000 6.062
46.04000 6.141
46.06000 6.075
46.08000 6.150
46.10000 6.160
46.12000 5.874
46.14000 5.894
46.16000 6.010
46.18000 6.058
46.20000 5.940
46.22000 5.996
46.24000 5.968
46.26000 5.921
46.28000 5.897
46.30000 5.932
46.32000 6.006
46.34000 6.031
46.36000 5.997
46.38000 5.912
46.40000 6.008
46.42000 5.950
46.44000 5.735
46.46000 5.971
46.48000 6.128
46.50000 6.062
46.52000 6.096
46.54000 6.134
46.56000 6.087
46.58000 6.049
46.60000 5.938
46.62000 5.769
46.64000 6.052
46.66000 6.110
46.68000 5.816
46.70000 5.994
46.72000 5.978
46.74000 6.001
46.76000 6.016
46.78000 6.060
46.80000 6.057
46.82000 6.086
46.84000 6.173
46.86000 6.104
46.88000 5.927
46.90000 5.832
46.92000 5.900
46.94000 5.894
46.96000 5.897
46.98000 6.036
47.00000 6.173
47.02000 6.120
47.04000 6.192
47.06000 6.016
47.08000 6.137
47.10000 5.999
47.12000 6.023
47.14000 6.094
47.16000 6.038
47.18000 5.934
47.20000 5.939
47.22000 5.978
47.24000 6.175
47.26000 6.029
47.28000 5.957
47.30000 5.928
47.32000 6.025
47.34000 5.966
47.36000 5.977
47.38000 6.078
47.40000 6.258
47.42000 6.150
47.44000 5.956
47.46000 6.170
47.48000 6.280
47.50000 5.919
47.52000 6.012
47.54000 6.119
47.56000 6.081
47.58000 6.162
47.60000 6.228
47.62000 6.141
47.64000 5.912
47.66000 6.031
47.68000 6.037
47.70000 5.855
47.72000 5.638
47.74000 5.842
47.76000 6.065
47.78000 6.048
47.80000 5.942
47.82000 5.980
47.84000 6.001
47.86000 5.994
47.88000 5.915
47.90000 5.704
47.92000 5.831
47.94000 6.106
47.96000 6.229
47.98000 6.007
48.00000 6.117
48.02000 6.005
48.04000 6.014
48.06000 5.961
48.08000 5.995
48.10000 5.961
48.12000 5.976
48.14000 6.129
48.16000 6.051
48.18000 5.927
48.20000 6.004
48.22000 6.173
48.24000 5.885
48.26000 5.962
48.28000 6.000
48.30000 5.948
48.32000 6.220
48.34000 6.271
48.36000 6.278
48.38000 6.164
48.40000 5.887
48.42000 6.136
48.44000 6.097
48.46000 6.228
48.48000 6.255
48.50000 6.059
48.52000 6.183
48.54000 6.485
48.56000 6.762
48.58000 6.639
48.60000 6.562
48.62000 6.762
48.64000 6.842
48.66000 7.212
48.68000 7.246
48.70000 7.538
48.72000 8.375
48.74000 10.555
48.76000 15.810
48.78000 25.463
48.80000 36.955
48.82000 47.304
48.84000 55.720
48.86000 59.816
48.88000 62.795
48.90000 64.547
48.92000 61.794
48.94000 53.621
48.96000 42.828
48.98000 36.228
49.00000 35.010
49.02000 33.352
49.04000 30.238
49.06000 24.329
49.08000 17.303
49.10000 11.465
49.12000 8.514
49.14000 7.400
49.16000 6.857
49.18000 6.747
49.20000 6.548
49.22000 6.455
49.24000 6.296
49.26000 6.163
49.28000 6.161
49.30000 6.003
49.32000 6.017
49.34000 6.154
49.36000 6.132
49.38000 6.127
49.40000 6.113
49.42000 6.006
49.44000 5.848
49.46000 5.835
49.48000 5.907
49.50000 6.053
49.52000 5.823
49.54000 5.808
49.56000 5.789
49.58000 5.662
49.60000 5.734
49.62000 5.906
49.64000 5.876
49.66000 5.854
49.68000 5.780
49.70000 5.697
49.72000 5.869
49.74000 5.786
49.76000 5.739
49.78000 5.951
49.80000 5.809
49.82000 5.796
49.84000 5.633
49.86000 5.668
49.88000 5.666
49.90000 5.881
49.92000 5.851
49.94000 5.814
49.96000 5.695
49.98000 5.874
50.00000 5.832
50.02000 5.759
50.04000 5.578
50.06000 5.659
50.08000 5.715
50.10000 5.916
50.12000 5.730
50.14000 5.435
50.16000 5.673
50.18000 5.577
50.20000 5.511
50.22000 5.664
50.24000 5.546
50.26000 5.611
50.28000 5.619
50.30000 5.551
50.32000 5.686
50.34000 5.759
50.36000 5.636
50.38000 5.461
50.40000 5.823
50.42000 5.679
50.44000 5.540
50.46000 5.707
50.48000 5.655
50.50000 5.598
50.52000 5.407
50.54000 5.477
50.56000 5.391
50.58000 5.375
50.60000 5.585
50.62000 5.645
50.64000 5.620
50.66000 5.593
50.68000 5.542
50.70000 5.838
50.72000 5.691
50.74000 5.822
50.76000 5.617
50.78000 5.567
50.80000 5.598
50.82000 5.790
50.84000 5.663
50.86000 5.554
50.88000 5.441
50.90000 5.398
50.92000 5.454
50.94000 5.468
50.96000 5.529
50.98000 5.325
51.00000 5.564
51.02000 5.504
51.04000 5.473
51.06000 5.675
51.08000 5.724
51.10000 5.666
51.12000 5.748
51.14000 5.654
51.16000 5.585
51.18000 5.604
51.20000 5.562
51.22000 5.515
51.24000 5.544
51.26000 5.641
51.28000 5.498
51.30000 5.602
51.32000 5.555
51.34000 5.528
51.36000 5.470
51.38000 5.509
51.40000 5.807
51.42000 5.789
51.44000 5.683
51.46000 5.320
51.48000 5.257
51.50000 5.475
51.52000 5.494
51.54000 5.561
51.56000 5.544
51.58000 5.448
51.60000 5.614
51.62000 5.685
51.64000 5.541
51.66000 5.470
51.68000 5.423
51.70000 5.623
51.72000 5.577
51.74000 5.438
51.76000 5.551
51.78000 5.559
51.80000 5.437
51.82000 5.528
51.84000 5.464
51.86000 5.537
51.88000 5.643
51.90000 5.579
51.92000 5.744
51.94000 5.493
51.96000 5.523
51.98000 5.427
52.00000 5.301
52.02000 5.454
52.04000 5.414
52.06000 5.477
52.08000 5.332
52.10000 5.368
52.12000 5.367
52.14000 5.551
52.16000 5.236
52.18000 5.529
52.20000 5.657
52.22000 5.713
52.24000 5.646
52.26000 5.325
52.28000 5.351
52.30000 5.557
52.32000 5.484
52.34000 5.523
52.36000 5.728
52.38000 5.735
52.40000 5.598
52.42000 5.462
52.44000 5.554
52.46000 5.649
52.48000 5.586
52.50000 5.578
52.52000 5.356
52.54000 5.311
52.56000 5.471
52.58000 5.352
52.60000 5.403
52.62000 5.391
52.64000 5.426
52.66000 5.281
52.68000 5.565
52.70000 5.657
52.72000 5.541
52.74000 5.633
52.76000 5.388
52.78000 5.642
52.80000 5.881
52.82000 5.696
52.84000 5.634
52.86000 5.649
52.88000 5.543
52.90000 5.468
52.92000 5.464
52.94000 5.443
52.96000 5.698
52.98000 5.560
53.00000 5.550
53.02000 5.648
53.04000 5.648
53.06000 5.362
53.08000 5.305
53.10000 5.493
53.12000 5.459
53.14000 5.457
53.16000 5.455
53.18000 5.356
53.20000 5.615
53.22000 5.529
53.24000 5.478
53.26000 5.602
53.28000 5.594
53.30000 5.338
53.32000 5.459
53.34000 5.620
53.36000 5.488
53.38000 5.675
53.40000 5.612
53.42000 5.352
53.44000 5.537
53.46000 5.654
53.48000 5.538
53.50000 5.464
53.52000 5.434
53.54000 5.751
53.56000 5.834
53.58000 5.820
53.60000 5.775
53.62000 5.861
53.64000 6.026
53.66000 6.175
53.68000 6.284
53.70000 6.278
53.72000 6.249
53.74000 6.664
53.76000 7.063
53.78000 8.655
53.80000 12.283
53.82000 18.111
53.84000 23.931
53.86000 28.624
53.88000 32.118
53.90000 33.075
53.92000 34.271
53.94000 33.722
53.96000 30.808
53.98000 25.994
54.00000 21.982
54.02000 20.159
54.04000 19.955
54.06000 19.400
54.08000 18.676
54.10000 16.493
54.12000 13.008
54.14000 9.691
54.16000 7.457
54.18000 6.440
54.20000 6.120
54.22000 5.794
54.24000 5.782
54.26000 5.635
54.28000 5.745
54.30000 5.645
54.32000 5.625
54.34000 5.436
54.36000 5.571
54.38000 5.532
54.40000 5.428
54.42000 5.452
54.44000 5.476
54.46000 5.376
54.48000 5.486
54.50000 5.347
54.52000 5.387
54.54000 5.312
54.56000 5.495
54.58000 5.419
54.60000 5.390
54.62000 5.325
54.64000 5.456
54.66000 5.495
54.68000 5.439
54.70000 5.493
54.72000 5.425
54.74000 5.252
54.76000 5.302
54.78000 5.323
54.80000 5.340
54.82000 5.484
54.84000 5.536
54.86000 5.369
54.88000 5.170
54.90000 5.359
54.92000 5.333
54.94000 5.274
54.96000 5.351
54.98000 5.473
55.00000 5.252
55.02000 5.216
55.04000 5.227
55.06000 5.382
55.08000 5.381
55.10000 5.221
55.12000 5.126
55.14000 5.158
55.16000 5.149
55.18000 5.164
55.20000 5.381
55.22000 5.330
55.24000 5.126
55.26000 5.376
55.28000 5.278
55.30000 5.284
55.32000 5.324
55.34000 5.326
55.36000 5.357
55.38000 5.259
55.40000 5.358
55.42000 5.200
55.44000 5.234
55.46000 5.222
55.48000 5.264
55.50000 5.317
55.52000 5.190
55.54000 5.239
55.56000 5.388
55.58000 5.291
55.60000 5.223
55.62000 5.269
55.64000 5.208
55.66000 5.140
55.68000 5.187
55.70000 5.104
55.72000 5.192
55.74000 5.405
55.76000 5.236
55.78000 5.273
55.80000 5.292
55.82000 5.250
55.84000 5.274
55.86000 5.219
55.88000 5.382
55.90000 5.222
55.92000 5.201
55.94000 5.236
55.96000 5.312
55.98000 5.321
56.00000 5.305
56.02000 5.226
56.04000 5.239
56.06000 5.358
56.08000 5.462
56.10000 5.269
56.12000 5.315
56.14000 5.340
56.16000 5.223
56.18000 5.276
56.20000 5.109
56.22000 5.260
56.24000 5.110
56.26000 5.240
56.28000 5.372
56.30000 5.311
56.32000 5.129
56.34000 5.376
56.36000 5.085
56.38000 5.071
56.40000 5.194
56.42000 5.455
56.44000 5.303
56.46000 5.204
56.48000 5.080
56.50000 5.042
56.52000 5.131
56.54000 5.208
56.56000 5.182
56.58000 5.345
56.60000 5.191
56.62000 5.346
56.64000 5.230
56.66000 5.122
56.68000 5.070
56.70000 5.230
56.72000 5.179
56.74000 5.307
56.76000 5.254
56.78000 5.228
56.80000 5.223
56.82000 5.357
56.84000 5.213
56.86000 5.253
56.88000 5.118
56.90000 4.887
56.92000 5.190
56.94000 5.347
56.96000 5.325
56.98000 5.119
57.00000 5.280
57.02000 5.379
57.04000 5.319
57.06000 5.375
57.08000 5.357
57.10000 5.276
57.12000 5.045
57.14000 5.292
57.16000 5.253
57.18000 5.092
57.20000 5.153
57.22000 5.249
57.24000 5.208
57.26000 5.084
57.28000 5.187
57.30000 5.255
57.32000 5.347
57.34000 5.273
57.36000 5.328
57.38000 5.310
57.40000 5.093
57.42000 5.078
57.44000 5.060
57.46000 5.132
57.48000 5.020
57.50000 5.076
57.52000 5.142
57.54000 5.062
57.56000 5.167
57.58000 5.166
57.60000 5.072
57.62000 5.177
57.64000 5.046
57.66000 5.058
57.68000 5.105
57.70000 5.155
57.72000 4.889
57.74000 5.095
57.76000 5.467
57.78000 5.366
57.80000 5.090
57.82000 5.061
57.84000 4.870
57.86000 4.943
57.88000 5.161
57.90000 5.114
57.92000 5.272
57.94000 5.292
57.96000 5.014
57.98000 5.181
58.00000 5.293
58.02000 5.109
58.04000 5.260
58.06000 5.311
58.08000 5.028
58.10000 4.968
58.12000 5.128
58.14000 5.215
58.16000 5.132
58.18000 5.199
58.20000 5.276
58.22000 5.200
58.24000 5.421
58.26000 5.249
58.28000 5.196
58.30000 5.149
58.32000 5.103
58.34000 5.140
58.36000 5.055
58.38000 5.093
58.40000 5.230
58.42000 5.277
58.44000 5.039
58.46000 4.987
58.48000 4.946
58.50000 4.987
58.52000 5.156
58.54000 5.052
58.56000 5.191
58.58000 5.065
58.60000 5.205
58.62000 5.088
58.64000 5.100
58.66000 5.108
58.68000 5.193
58.70000 5.169
58.72000 5.223
58.74000 5.289
58.76000 5.163
58.78000 5.177
58.80000 5.168
58.82000 5.062
58.84000 5.003
58.86000 5.061
58.88000 5.096
58.90000 5.147
58.92000 5.089
58.94000 5.168
58.96000 5.060
58.98000 5.302
59.00000 5.150
59.02000 5.123
59.04000 5.102
59.06000 5.200
59.08000 4.927
59.10000 5.077
59.12000 4.911
59.14000 4.987
59.16000 5.091
59.18000 4.931
59.20000 4.827
59.22000 5.175
59.24000 5.014
59.26000 5.043
59.28000 5.111
59.30000 5.116
59.32000 5.167
59.34000 5.107
59.36000 5.063
59.38000 5.146
59.40000 5.037
59.42000 4.957
59.44000 4.876
59.46000 5.061
59.48000 5.009
59.50000 4.969
59.52000 5.154
59.54000 4.940
59.56000 4.962
59.58000 5.088
59.60000 5.166
59.62000 5.063
59.64000 5.157
59.66000 5.107
59.68000 4.914
59.70000 5.146
59.72000 5.309
59.74000 5.160
59.76000 5.069
59.78000 4.908
59.80000 4.921
59.82000 5.171
59.84000 4.971
59.86000 4.895
59.88000 4.942
59.90000 4.922
59.92000 5.236
59.94000 5.107
59.96000 5.342
59.98000 5.126
60.00000 5.017
60.02000 5.167
60.04000 4.926
60.06000 4.924
60.08000 5.024
60.10000 5.112
60.12000 5.050
60.14000 4.987
60.16000 4.909
60.18000 4.973
60.20000 5.082
60.22000 4.944
60.24000 5.136
60.26000 5.043
60.28000 4.933
60.30000 4.997
60.32000 4.901
60.34000 5.105
60.36000 5.068
60.38000 4.967
60.40000 4.939
60.42000 4.977
60.44000 4.793
60.46000 5.026
60.48000 5.157
60.50000 4.974
60.52000 5.061
60.54000 4.945
60.56000 4.823
60.58000 4.959
60.60000 4.947
60.62000 4.953
60.64000 4.945
60.66000 5.148
60.68000 4.928
60.70000 4.936
60.72000 4.997
60.74000 4.966
60.76000 5.239
60.78000 5.301
60.80000 4.897
60.82000 4.865
60.84000 5.097
60.86000 5.014
60.88000 5.033
60.90000 4.994
60.92000 5.063
60.94000 5.011
60.96000 4.881
60.98000 4.776
61.00000 4.868
61.02000 5.034
61.04000 5.006
61.06000 4.862
61.08000 4.916
61.10000 4.997
61.12000 4.837
61.14000 4.954
61.16000 4.998
61.18000 5.081
61.20000 5.051
61.22000 4.918
61.24000 4.913
61.26000 4.966
61.28000 5.115
61.30000 5.080
61.32000 4.982
61.34000 4.927
61.36000 4.838
61.38000 4.900
61.40000 4.974
61.42000 5.033
61.44000 4.880
61.46000 4.906
61.48000 4.945
61.50000 4.970
61.52000 5.175
61.54000 5.009
61.56000 4.837
61.58000 4.932
61.60000 5.072
61.62000 5.019
61.64000 4.969
61.66000 5.010
61.68000 4.874
61.70000 4.933
61.72000 4.973
61.74000 5.024
61.76000 4.892
61.78000 4.952
61.80000 4.990
61.82000 5.113
61.84000 4.980
61.86000 4.962
61.88000 4.911
61.90000 4.949
61.92000 4.883
61.94000 4.737
61.96000 5.036
61.98000 5.042
62.00000 5.011
62.02000 4.986
62.04000 4.872
62.06000 4.919
62.08000 5.071
62.10000 5.005
62.12000 5.005
62.14000 4.926
62.16000 4.873
62.18000 4.953
62.20000 5.057
62.22000 5.041
62.24000 5.152
62.26000 4.919
62.28000 5.146
62.30000 4.912
62.32000 4.960
62.34000 5.127
62.36000 4.946
62.38000 4.935
62.40000 5.073
62.42000 5.002
62.44000 4.816
62.46000 4.901
62.48000 5.019
62.50000 5.019
62.52000 4.825
62.54000 4.819
62.56000 4.857
62.58000 4.969
62.60000 4.968
62.62000 4.905
62.64000 4.838
62.66000 5.040
62.68000 5.009
62.70000 5.100
62.72000 4.995
62.74000 5.141
62.76000 4.928
62.78000 5.173
62.80000 5.192
62.82000 5.096
62.84000 5.145
62.86000 5.162
62.88000 5.257
62.90000 5.187
62.92000 5.018
62.94000 4.976
62.96000 5.241
62.98000 5.489
63.00000 5.652
63.02000 6.395
63.04000 8.021
63.06000 10.397
63.08000 12.038
63.10000 14.211
63.12000 15.417
63.14000 15.835
63.16000 16.052
63.18000 14.917
63.20000 12.993
63.22000 10.856
63.24000 9.755
63.26000 9.591
63.28000 9.861
63.30000 10.146
63.32000 10.530
63.34000 10.499
63.36000 9.723
63.38000 8.423
63.40000 6.977
63.42000 5.899
63.44000 5.333
63.46000 5.339
63.48000 5.225
63.50000 5.113
63.52000 5.195
63.54000 4.967
63.56000 5.071
63.58000 4.845
63.60000 4.924
63.62000 5.001
63.64000 4.815
63.66000 4.654
63.68000 4.849
63.70000 4.967
63.72000 5.039
63.74000 4.866
63.76000 4.715
63.78000 4.950
63.80000 4.775
63.82000 4.936
63.84000 4.910
63.86000 5.011
63.88000 5.005
63.90000 4.828
63.92000 4.998
63.94000 5.218
63.96000 4.844
63.98000 4.869
64.00000 4.743
64.02000 4.839
64.04000 4.902
64.06000 5.009
64.08000 4.796
64.10000 4.833
64.12000 4.881
64.14000 4.970
64.16000 5.001
64.18000 4.894
64.20000 4.984
64.22000 4.987
64.24000 4.758
64.26000 4.785
64.28000 4.812
64.30000 4.883
64.32000 4.852
64.34000 4.725
64.36000 4.941
64.38000 4.898
64.40000 4.976
64.42000 4.943
64.44000 4.864
64.46000 4.900
64.48000 5.109
64.50000 4.871
64.52000 4.682
64.54000 4.884
64.56000 4.899
64.58000 4.966
64.60000 5.003
64.62000 4.819
64.64000 4.894
64.66000 4.902
64.68000 4.851
64.70000 4.835
64.72000 5.084
64.74000 4.935
64.76000 4.840
64.78000 4.922
64.80000 4.852
64.82000 4.844
64.84000 5.008
64.86000 5.109
64.88000 5.069
64.90000 4.892
64.92000 4.945
64.94000 5.121
64.96000 4.887
64.98000 4.888
65.00000 5.120
65.02000 4.936
65.04000 4.801
65.06000 4.859
65.08000 4.906
65.10000 4.968
65.12000 4.823
65.14000 4.783
65.16000 4.949
65.18000 4.935
65.20000 4.937
65.22000 4.985
65.24000 4.803
65.26000 4.811
65.28000 5.002
65.30000 5.088
65.32000 4.945
65.34000 4.726
65.36000 4.715
65.38000 4.661
65.40000 4.821
65.42000 4.853
65.44000 4.962
65.46000 4.867
65.48000 4.837
65.50000 4.871
65.52000 4.947
65.54000 4.969
65.56000 4.867
65.58000 4.797
65.60000 4.884
65.62000 4.792
65.64000 4.719
65.66000 4.747
65.68000 4.902
65.70000 4.744
65.72000 4.832
65.74000 4.825
65.76000 4.918
65.78000 4.851
65.80000 4.928
65.82000 4.878
65.84000 4.833
65.86000 4.737
65.88000 4.799
65.90000 4.821
65.92000 4.671
65.94000 4.870
65.96000 4.904
65.98000 4.878
66.00000 4.838
66.02000 4.873
66.04000 4.906
66.06000 4.829
66.08000 4.818
66.10000 4.909
66.12000 4.908
66.14000 4.823
66.16000 4.775
66.18000 4.743
66.20000 4.706
66.22000 4.886
66.24000 4.771
66.26000 4.932
66.28000 5.088
66.30000 4.832
66.32000 4.736
66.34000 4.779
66.36000 4.836
66.38000 4.922
66.40000 5.027
66.42000 4.899
66.44000 5.012
66.46000 4.901
66.48000 4.842
66.50000 4.918
66.52000 4.847
66.54000 4.880
66.56000 4.906
66.58000 4.857
66.60000 4.884
66.62000 4.763
66.64000 4.934
66.66000 4.819
66.68000 4.828
66.70000 4.958
66.72000 4.987
66.74000 4.811
66.76000 4.925
66.78000 4.933
66.80000 4.878
66.82000 4.892
66.84000 4.906
66.86000 4.758
66.88000 4.769
66.90000 5.046
66.92000 5.001
66.94000 5.013
66.96000 5.041
66.98000 4.968
67.00000 4.954
67.02000 4.972
67.04000 5.068
67.06000 5.202
67.08000 5.218
67.10000 5.325
67.12000 5.199
67.14000 5.282
67.16000 5.277
67.18000 5.235
67.20000 5.338
67.22000 5.555
67.24000 5.656
67.26000 5.761
67.28000 5.581
67.30000 5.822
67.32000 6.433
67.34000 8.053
67.36000 11.239
67.38000 15.840
67.40000 21.043
67.42000 26.211
67.44000 30.318
67.46000 32.896
67.48000 33.527
67.50000 32.622
67.52000 28.603
67.54000 22.658
67.56000 17.490
67.58000 15.511
67.60000 16.239
67.62000 17.403
67.64000 18.510
67.66000 19.066
67.68000 18.469
67.70000 17.916
67.72000 15.183
67.74000 11.043
67.76000 8.261
67.78000 6.785
67.80000 6.087
67.82000 5.443
67.84000 5.254
67.86000 5.035
67.88000 5.197
67.90000 5.225
67.92000 5.085
67.94000 5.018
67.96000 5.115
67.98000 5.153
68.00000 4.957
68.02000 5.126
68.04000 5.036
68.06000 5.270
68.08000 5.088
68.10000 5.038
68.12000 4.891
68.14000 4.906
68.16000 5.071
68.18000 4.934
68.20000 4.966
68.22000 5.014
68.24000 4.962
68.26000 5.020
68.28000 4.968
68.30000 4.867
68.32000 4.756
68.34000 4.735
68.36000 5.017
68.38000 4.986
68.40000 4.871
68.42000 4.759
68.44000 4.990
68.46000 4.964
68.48000 4.909
68.50000 4.760
68.52000 4.866
68.54000 5.039
68.56000 4.983
68.58000 4.769
68.60000 4.771
68.62000 4.819
68.64000 4.923
68.66000 4.826
68.68000 4.836
68.70000 4.753
68.72000 4.982
68.74000 5.006
68.76000 4.979
68.78000 4.779
68.80000 4.706
68.82000 4.860
68.84000 4.888
68.86000 4.822
68.88000 4.702
68.90000 4.895
68.92000 4.759
68.94000 4.696
68.96000 4.878
68.98000 4.908
69.00000 4.931
69.02000 4.941
69.04000 4.859
69.06000 4.909
69.08000 4.830
69.10000 4.906
69.12000 4.465
69.14000 4.672
69.16000 4.707
69.18000 4.837
69.20000 4.827
69.22000 4.757
69.24000 4.762
69.26000 4.903
69.28000 4.695
69.30000 4.804
69.32000 4.880
69.34000 4.734
69.36000 4.662
69.38000 4.906
69.40000 4.731
69.42000 4.593
69.44000 4.714
69.46000 4.727
69.48000 4.848
69.50000 4.941
69.52000 4.546
69.54000 4.651
69.56000 4.873
69.58000 4.875
69.60000 4.796
69.62000 4.775
69.64000 4.835
69.66000 4.827
69.68000 4.756
69.70000 4.702
69.72000 4.679
69.74000 4.734
69.76000 4.642
69.78000 4.781
69.80000 4.694
69.82000 4.785
69.84000 4.914
69.86000 4.766
69.88000 4.881
69.90000 4.983
69.92000 4.973
69.94000 4.879
69.96000 4.775
69.98000 4.723
70.00000 4.743
70.02000 4.745
70.04000 4.610
70.06000 4.579
70.08000 4.695
70.10000 4.672
70.12000 4.654
70.14000 4.910
70.16000 4.696
70.18000 4.676
70.20000 4.703
70.22000 4.710
70.24000 4.780
70.26000 4.775
70.28000 4.866
70.30000 4.829
70.32000 4.772
70.34000 4.614
70.36000 4.816
70.38000 4.878
70.40000 4.694
70.42000 4.655
70.44000 4.630
70.46000 4.656
70.48000 4.710
70.50000 4.752
70.52000 4.761
70.54000 4.729
70.56000 4.786
70.58000 4.849
70.60000 4.767
70.62000 4.748
70.64000 4.708
70.66000 4.735
70.68000 4.764
70.70000 4.793
70.72000 4.663
70.74000 4.708
70.76000 4.763
70.78000 4.636
70.80000 4.647
70.82000 4.950
70.84000 4.942
70.86000 4.829
70.88000 4.764
70.90000 4.691
70.92000 4.741
70.94000 4.676
70.96000 4.594
70.98000 4.650
71.00000 4.607
71.02000 4.692
71.04000 4.873
71.06000 4.869
71.08000 4.872
71.10000 4.809
71.12000 4.485
71.14000 4.791
71.16000 4.939
71.18000 4.903
71.20000 4.917
71.22000 4.978
71.24000 4.922
71.26000 4.895
71.28000 5.055
71.30000 5.006
71.32000 4.891
71.34000 4.770
71.36000 5.005
71.38000 5.160
71.40000 5.011
71.42000 5.071
71.44000 5.138
71.46000 5.278
71.48000 5.344
71.50000 5.343
71.52000 6.099
71.54000 6.780
71.56000 9.000
71.58000 12.358
71.60000 16.619
71.62000 20.136
71.64000 22.643
71.66000 23.952
71.68000 24.186
71.70000 23.487
71.72000 20.855
71.74000 16.597
71.76000 12.924
71.78000 10.954
71.80000 11.262
71.82000 12.263
71.84000 13.324
71.86000 14.238
71.88000 14.247
71.90000 13.877
71.92000 13.093
71.94000 11.041
71.96000 8.858
71.98000 7.065
72.00000 6.230
72.02000 5.422
72.04000 4.984
72.06000 4.968
72.08000 5.034
72.10000 4.917
72.12000 4.820
72.14000 4.810
72.16000 4.724
72.18000 4.629
72.20000 4.607
72.22000 4.830
72.24000 4.968
72.26000 4.900
72.28000 4.774
72.30000 4.756
72.32000 4.737
72.34000 4.742
72.36000 4.805
72.38000 4.879
72.40000 4.677
72.42000 4.863
72.44000 4.810
72.46000 4.605
72.48000 4.566
72.50000 4.581
72.52000 4.711
72.54000 4.685
72.56000 4.560
72.58000 4.892
72.60000 4.879
72.62000 4.704
72.64000 4.970
72.66000 4.824
72.68000 4.752
72.70000 4.697
72.72000 4.730
72.74000 4.583
72.76000 4.795
72.78000 4.825
72.80000 4.682
72.82000 4.763
72.84000 4.784
72.86000 4.867
72.88000 4.632
72.90000 4.613
72.92000 4.462
72.94000 4.565
72.96000 4.663
72.98000 4.593
73.00000 4.610
73.02000 4.623
73.04000 4.683
73.06000 4.778
73.08000 4.719
73.10000 4.887
73.12000 4.980
73.14000 4.761
73.16000 4.680
73.18000 4.813
73.20000 4.818
73.22000 4.610
73.24000 4.603
73.26000 4.826
73.28000 4.818
73.30000 4.780
73.32000 4.784
73.34000 4.690
73.36000 4.707
73.38000 4.890
73.40000 4.615
73.42000 4.692
73.44000 4.491
73.46000 4.452
73.48000 4.783
73.50000 4.773
73.52000 4.893
73.54000 4.805
73.56000 4.686
73.58000 4.602
73.60000 4.712
73.62000 4.896
73.64000 4.753
73.66000 4.838
73.68000 4.699
73.70000 4.648
73.72000 4.662
73.74000 4.616
73.76000 4.674
73.78000 4.756
73.80000 4.629
73.82000 4.563
73.84000 4.662
73.86000 4.601
73.88000 4.766
73.90000 4.743
73.92000 4.657
73.94000 4.870
73.96000 4.657
73.98000 4.477
74.00000 4.588
74.02000 4.586
74.04000 4.611
74.06000 4.842
74.08000 4.630
74.10000 4.648
74.12000 4.623
74.14000 4.743
74.16000 4.690
74.18000 4.709
74.20000 4.747
74.22000 4.688
74.24000 4.708
74.26000 4.662
74.28000 4.594
74.30000 4.601
74.32000 4.620
74.34000 4.572
74.36000 4.655
74.38000 4.617
74.40000 4.492
74.42000 4.561
74.44000 4.651
74.46000 4.691
74.48000 4.560
74.50000 4.626
74.52000 4.736
74.54000 4.777
74.56000 4.640
74.58000 4.651
74.60000 4.622
74.62000 4.673
74.64000 4.731
74.66000 4.766
74.68000 4.776
74.70000 4.572
74.72000 4.660
74.74000 4.730
74.76000 4.872
74.78000 4.616
74.80000 4.517
74.82000 4.654
74.84000 4.679
74.86000 4.610
74.88000 4.516
74.90000 4.635
74.92000 4.492
74.94000 4.486
74.96000 4.725
74.98000 4.680
75.00000 4.567
75.02000 4.668
75.04000 4.604
75.06000 4.696
75.08000 4.873
75.10000 4.807
75.12000 4.642
75.14000 4.521
75.16000 4.384
75.18000 4.750
75.20000 4.644
75.22000 4.600
75.24000 4.708
75.26000 4.856
75.28000 4.707
75.30000 4.695
75.32000 4.810
75.34000 4.768
75.36000 4.810
75.38000 4.881
75.40000 4.742
75.42000 4.810
75.44000 4.897
75.46000 5.020
75.48000 4.962
75.50000 4.819
75.52000 4.910
75.54000 5.029
75.56000 4.954
75.58000 4.899
75.60000 5.179
75.62000 5.538
75.64000 6.413
75.66000 7.532
75.68000 9.770
75.70000 12.389
75.72000 14.606
75.74000 16.159
75.76000 17.480
75.78000 17.461
75.80000 16.957
75.82000 14.965
75.84000 12.064
75.86000 9.363
75.88000 8.234
75.90000 8.162
75.92000 8.553
75.94000 9.702
75.96000 10.489
75.98000 10.672
76.00000 10.830
76.02000 10.369
76.04000 9.968
76.06000 8.308
76.08000 6.793
76.10000 5.883
76.12000 5.333
76.14000 5.309
76.16000 4.971
76.18000 4.717
76.20000 4.703
76.22000 4.809
76.24000 4.716
76.26000 4.670
76.28000 4.603
76.30000 4.639
76.32000 4.755
76.34000 4.675
76.36000 4.669
76.38000 4.611
76.40000 4.673
76.42000 4.726
76.44000 4.834
76.46000 4.731
76.48000 4.662
76.50000 4.644
76.52000 4.646
76.54000 4.711
76.56000 4.663
76.58000 4.597
76.60000 4.647
76.62000 4.644
76.64000 4.590
76.66000 4.650
76.68000 4.842
76.70000 4.610
76.72000 4.494
76.74000 4.707
76.76000 4.688
76.78000 4.680
76.80000 4.485
76.82000 4.604
76.84000 4.597
76.86000 4.670
76.88000 4.770
76.90000 4.703
76.92000 4.545
76.94000 4.559
76.96000 4.705
76.98000 4.618
77.00000 4.473
77.02000 4.563
77.04000 4.738
77.06000 4.542
77.08000 4.661
77.10000 4.672
77.12000 4.659
77.14000 4.634
77.16000 4.573
77.18000 4.639
77.20000 4.513
77.22000 4.684
77.24000 4.628
77.26000 4.501
77.28000 4.546
77.30000 4.534
77.32000 4.536
77.34000 4.467
77.36000 4.468
77.38000 4.678
77.40000 4.639
77.42000 4.624
77.44000 4.496
77.46000 4.501
77.48000 4.514
77.50000 4.417
77.52000 4.408
77.54000 4.300
77.56000 4.517
77.58000 4.688
77.60000 4.582
77.62000 4.293
77.64000 4.508
77.66000 4.625
77.68000 4.609
77.70000 4.737
77.72000 4.632
77.74000 4.391
77.76000 4.524
77.78000 4.571
77.80000 4.636
77.82000 4.628
77.84000 4.734
77.86000 4.625
77.88000 4.704
77.90000 4.575
77.92000 4.705
77.94000 4.697
77.96000 4.680
77.98000 4.495
78.00000 4.554
78.02000 4.454
78.04000 4.497
78.06000 4.521
78.08000 4.571
78.10000 4.623
78.12000 4.509
78.14000 4.402
78.16000 4.486
78.18000 4.523
78.20000 4.631
78.22000 4.782
78.24000 4.612
78.26000 4.557
78.28000 4.697
78.30000 4.713
78.32000 4.702
78.34000 4.682
78.36000 4.548
78.38000 4.482
78.40000 4.607
78.42000 4.688
78.44000 4.641
78.46000 4.678
78.48000 4.568
78.50000 4.619
78.52000 4.564
78.54000 4.564
78.56000 4.603
78.58000 4.612
78.60000 4.588
78.62000 4.679
78.64000 4.555
78.66000 4.560
78.68000 4.442
78.70000 4.526
78.72000 4.569
78.74000 4.517
78.76000 4.606
78.78000 4.606
78.80000 4.474
78.82000 4.658
78.84000 4.573
78.86000 4.632
78.88000 4.520
78.90000 4.504
78.92000 4.482
78.94000 4.433
78.96000 4.565
78.98000 4.459
79.00000 4.487
79.02000 4.541
79.04000 4.608
79.06000 4.674
79.08000 4.497
79.10000 4.374
79.12000 4.548
79.14000 4.544
79.16000 4.815
79.18000 4.709
79.20000 4.525
79.22000 4.461
79.24000 4.676
79.26000 4.597
79.28000 4.453
79.30000 4.484
79.32000 4.312
79.34000 4.554
79.36000 4.815
79.38000 4.536
79.40000 4.655
79.42000 4.672
79.44000 4.607
79.46000 4.679
79.48000 4.512
79.50000 4.530
79.52000 4.480
79.54000 4.534
79.56000 4.457
79.58000 4.612
79.60000 4.564
79.62000 4.628
79.64000 4.752
79.66000 4.743
79.68000 4.702
79.70000 5.254
79.72000 5.889
79.74000 6.461
79.76000 6.408
79.78000 6.763
79.80000 6.922
79.82000 6.931
79.84000 6.360
79.86000 6.137
79.88000 5.698
79.90000 5.236
79.92000 4.979
79.94000 5.087
79.96000 5.338
79.98000 5.511
80.00000 5.543
80.02000 5.899
80.04000 5.893
80.06000 5.595
80.08000 5.493
80.10000 5.209
80.12000 5.059
80.14000 4.901
80.16000 4.816
80.18000 4.466
80.20000 4.476
80.22000 4.454
80.24000 4.560
80.26000 4.532
80.28000 4.447
80.30000 4.396
80.32000 4.468
80.34000 4.471
80.36000 4.575
80.38000 4.775
80.40000 4.618
80.42000 4.535
80.44000 4.429
80.46000 4.505
80.48000 4.407
80.50000 4.390
80.52000 4.595
80.54000 4.496
80.56000 4.481
80.58000 4.446
80.60000 4.480
80.62000 4.551
80.64000 4.610
80.66000 4.577
80.68000 4.590
80.70000 4.531
80.72000 4.547
80.74000 4.610
80.76000 4.521
80.78000 4.575
80.80000 4.622
80.82000 4.413
80.84000 4.407
80.86000 4.614
80.88000 4.486
80.90000 4.438
80.92000 4.384
80.94000 4.626
80.96000 4.790
80.98000 4.647
81.00000 4.248
81.02000 4.297
81.04000 4.423
81.06000 4.385
81.08000 4.645
81.10000 4.830
81.12000 4.499
81.14000 4.478
81.16000 4.481
81.18000 4.596
81.20000 4.559
81.22000 4.413
81.24000 4.515
81.26000 4.485
81.28000 4.331
81.30000 4.492
81.32000 4.539
81.34000 4.516
81.36000 4.597
81.38000 4.571
81.40000 4.256
81.42000 4.479
81.44000 4.493
81.46000 4.326
81.48000 4.438
81.50000 4.525
81.52000 4.600
81.54000 4.571
81.56000 4.324
81.58000 4.536
81.60000 4.564
81.62000 4.597
81.64000 4.670
81.66000 4.443
81.68000 4.497
81.70000 4.549
81.72000 4.361
81.74000 4.505
81.76000 4.488
81.78000 4.429
81.80000 4.618
81.82000 4.642
81.84000 4.651
81.86000 4.568
81.88000 4.562
81.90000 4.536
81.92000 4.540
81.94000 4.593
81.96000 4.544
81.98000 4.631
82.00000 4.649
82.02000 4.502
82.04000 4.224
82.06000 4.442
82.08000 4.452
82.10000 4.399
82.12000 4.694
82.14000 4.617
82.16000 4.213
82.18000 4.507
82.20000 4.608
82.22000 4.466
82.24000 4.599
82.26000 4.403
82.28000 4.536
82.30000 4.556
82.32000 4.424
82.34000 4.465
82.36000 4.336
82.38000 4.504
82.40000 4.594
82.42000 4.431
82.44000 4.453
82.46000 4.519
82.48000 4.670
82.50000 4.519
82.52000 4.438
82.54000 4.684
82.56000 4.708
82.58000 4.692
82.60000 4.675
82.62000 4.661
82.64000 4.743
82.66000 4.508
82.68000 4.362
82.70000 4.550
82.72000 4.544
82.74000 4.513
82.76000 4.760
82.78000 4.734
82.80000 4.552
82.82000 4.735
82.84000 4.726
82.86000 4.566
82.88000 4.496
82.90000 4.415
82.92000 4.495
82.94000 4.489
82.96000 4.593
82.98000 4.533
83.00000 4.639
83.02000 4.513
83.04000 4.575
83.06000 4.565
83.08000 4.396
83.10000 4.436
83.12000 4.517
83.14000 4.552
83.16000 4.633
83.18000 4.646
83.20000 4.729
83.22000 4.645
83.24000 4.506
83.26000 4.932
83.28000 4.702
83.30000 4.550
83.32000 4.603
83.34000 4.427
83.36000 4.553
83.38000 4.618
83.40000 4.730
83.42000 4.671
83.44000 4.833
83.46000 4.725
83.48000 4.578
83.50000 4.451
83.52000 4.559
83.54000 4.669
83.56000 4.637
83.58000 4.699
83.60000 4.744
83.62000 4.941
83.64000 5.129
83.66000 6.026
83.68000 7.229
83.70000 8.793
83.72000 10.243
83.74000 11.788
83.76000 12.850
83.78000 13.084
83.80000 12.703
83.82000 12.098
83.84000 10.355
83.86000 8.258
83.88000 6.793
83.90000 6.010
83.92000 6.035
83.94000 6.435
83.96000 7.011
83.98000 7.470
84.00000 8.124
84.02000 8.456
84.04000 8.365
84.06000 8.369
84.08000 8.181
84.10000 7.457
84.12000 6.383
84.14000 5.441
84.16000 4.893
84.18000 4.819
84.20000 4.742
84.22000 4.689
84.24000 4.804
84.26000 4.714
84.28000 4.651
84.30000 4.587
84.32000 4.558
84.34000 4.460
84.36000 4.660
84.38000 4.758
84.40000 4.497
84.42000 4.431
84.44000 4.333
84.46000 4.495
84.48000 4.552
84.50000 4.601
84.52000 4.486
84.54000 4.384
84.56000 4.630
84.58000 4.552
84.60000 4.487
84.62000 4.511
84.64000 4.510
84.66000 4.525
84.68000 4.499
84.70000 4.343
84.72000 4.369
84.74000 4.596
84.76000 4.562
84.78000 4.500
84.80000 4.629
84.82000 4.729
84.84000 4.682
84.86000 4.581
84.88000 4.582
84.90000 4.440
84.92000 4.471
84.94000 4.441
84.96000 4.672
84.98000 4.569
85.00000 4.590
85.02000 4.409
85.04000 4.465
85.06000 4.428
85.08000 4.317
85.10000 4.339
85.12000 4.241
85.14000 4.475
85.16000 4.562
85.18000 4.477
85.20000 4.549
85.22000 4.638
85.24000 4.516
85.26000 4.317
85.28000 4.371
85.30000 4.521
85.32000 4.493
85.34000 4.576
85.36000 4.380
85.38000 4.350
85.40000 4.564
85.42000 4.641
85.44000 4.399
85.46000 4.313
85.48000 4.382
85.50000 4.533
85.52000 4.621
85.54000 4.530
85.56000 4.730
85.58000 4.745
85.60000 4.594
85.62000 4.545
85.64000 4.633
85.66000 4.500
85.68000 4.438
85.70000 4.618
85.72000 4.675
85.74000 4.638
85.76000 4.637
85.78000 4.550
85.80000 4.484
85.82000 4.408
85.84000 4.478
85.86000 4.612
85.88000 4.539
85.90000 4.599
85.92000 4.408
85.94000 4.330
85.96000 4.493
85.98000 4.635
86.00000 4.509
86.02000 4.477
86.04000 4.664
86.06000 4.432
86.08000 4.316
86.10000 4.299
86.12000 4.442
86.14000 4.651
86.16000 4.378
86.18000 4.459
86.20000 4.421
86.22000 4.354
86.24000 4.479
86.26000 4.600
86.28000 4.595
86.30000 4.612
86.32000 4.527
86.34000 4.508
86.36000 4.541
86.38000 4.618
86.40000 4.709
86.42000 4.611
86.44000 4.532
86.46000 4.553
86.48000 4.508
86.50000 4.398
86.52000 4.516
86.54000 4.538
86.56000 4.453
86.58000 4.629
86.60000 4.769
86.62000 4.606
86.64000 4.562
86.66000 4.689
86.68000 4.700
86.70000 4.562
86.72000 4.506
86.74000 4.511
86.76000 4.593
86.78000 4.470
86.80000 4.493
86.82000 4.617
86.84000 4.491
86.86000 4.545
86.88000 4.591
86.90000 4.676
86.92000 4.571
86.94000 4.620
86.96000 4.508
86.98000 4.372
87.00000 4.506
87.02000 4.612
87.04000 4.449
87.06000 4.529
87.08000 4.559
87.10000 4.412
87.12000 4.515
87.14000 4.641
87.16000 4.594
87.18000 4.622
87.20000 4.804
87.22000 4.628
87.24000 4.503
87.26000 4.459
87.28000 4.508
87.30000 4.570
87.32000 4.640
87.34000 4.631
87.36000 4.715
87.38000 4.610
87.40000 4.489
87.42000 4.602
87.44000 4.765
87.46000 4.915
87.48000 4.780
87.50000 4.945
87.52000 5.095
87.54000 5.035
87.56000 5.302
87.58000 5.973
87.60000 6.988
87.62000 9.023
87.64000 11.762
87.66000 14.706
87.68000 17.205
87.70000 19.345
87.72000 20.711
87.74000 21.040
87.76000 20.223
87.78000 17.397
87.80000 13.783
87.82000 10.247
87.84000 7.915
87.86000 7.122
87.88000 6.951
87.90000 7.584
87.92000 8.800
87.94000 10.147
87.96000 11.376
87.98000 12.356
88.00000 12.491
88.02000 12.386
88.04000 11.781
88.06000 10.162
88.08000 8.488
88.10000 7.124
88.12000 6.012
88.14000 5.476
88.16000 5.222
88.18000 5.085
88.20000 4.903
88.22000 4.692
88.24000 4.820
88.26000 4.712
88.28000 4.645
88.30000 4.566
88.32000 4.514
88.34000 4.621
88.36000 4.737
88.38000 4.658
88.40000 4.650
88.42000 4.614
88.44000 4.442
88.46000 4.462
88.48000 4.551
88.50000 4.444
88.52000 4.401
88.54000 4.616
88.56000 4.475
88.58000 4.583
88.60000 4.499
88.62000 4.557
88.64000 4.720
88.66000 4.581
88.68000 4.508
88.70000 4.455
88.72000 4.608
88.74000 4.526
88.76000 4.456
88.78000 4.534
88.80000 4.355
88.82000 4.444
88.84000 4.485
88.86000 4.456
88.88000 4.495
88.90000 4.494
88.92000 4.375
88.94000 4.472
88.96000 4.441
88.98000 4.514
89.00000 4.580
89.02000 4.305
89.04000 4.499
89.06000 4.488
89.08000 4.498
89.10000 4.524
89.12000 4.294
89.14000 4.462
89.16000 4.426
89.18000 4.394
89.20000 4.521
89.22000 4.604
89.24000 4.475
89.26000 4.444
89.28000 4.188
89.30000 4.344
89.32000 4.563
89.34000 4.504
89.36000 4.607
89.38000 4.492
89.40000 4.517
89.42000 4.591
89.44000 4.494
89.46000 4.471
89.48000 4.522
89.50000 4.291
89.52000 4.397
89.54000 4.536
89.56000 4.514
89.58000 4.584
89.60000 4.518
89.62000 4.571
89.64000 4.462
89.66000 4.171
89.68000 4.284
89.70000 4.426
89.72000 4.484
89.74000 4.368
89.76000 4.478
89.78000 4.484
89.80000 4.439
89.82000 4.487
89.84000 4.514
89.86000 4.227
89.88000 4.421
89.90000 4.632
89.92000 4.505
89.94000 4.437
89.96000 4.290
89.98000 4.541
90.00000 4.550
90.02000 4.635
90.04000 4.449
90.06000 4.493
90.08000 4.599
90.10000 4.408
90.12000 4.395
90.14000 4.424
90.16000 4.485
90.18000 4.409
90.20000 4.446
90.22000 4.457
90.24000 4.569
90.26000 4.497
90.28000 4.574
90.30000 4.661
90.32000 4.559
90.34000 4.593
90.36000 4.643
90.38000 4.703
90.40000 4.698
90.42000 4.391
90.44000 4.389
90.46000 4.353
90.48000 4.392
90.50000 4.530
90.52000 4.624
90.54000 4.556
90.56000 4.394
90.58000 4.424
90.60000 4.506
90.62000 4.577
90.64000 4.426
90.66000 4.419
90.68000 4.532
90.70000 4.434
90.72000 4.479
90.74000 4.317
90.76000 4.309
90.78000 4.392
90.80000 4.266
90.82000 4.315
90.84000 4.429
90.86000 4.357
90.88000 4.438
90.90000 4.334
90.92000 4.260
90.94000 4.350
90.96000 4.511
90.98000 4.512
91.00000 4.279
91.02000 4.362
91.04000 4.504
91.06000 4.411
91.08000 4.470
91.10000 4.453
91.12000 4.471
91.14000 4.335
91.16000 4.231
91.18000 4.329
91.20000 4.407
91.22000 4.483
91.24000 4.502
91.26000 4.408
91.28000 4.705
91.30000 4.590
91.32000 4.222
91.34000 4.405
91.36000 4.329
91.38000 4.444
91.40000 4.481
91.42000 4.474
91.44000 4.592
91.46000 4.597
91.48000 4.585
91.50000 4.513
91.52000 4.710
91.54000 4.547
91.56000 4.306
91.58000 4.256
91.60000 4.219
91.62000 4.563
91.64000 4.470
91.66000 4.480
91.68000 4.619
91.70000 4.546
91.72000 4.362
91.74000 4.400
91.76000 4.394
91.78000 4.466
91.80000 4.518
91.82000 4.315
91.84000 4.458
91.86000 4.365
91.88000 4.327
91.90000 4.194
91.92000 4.280
91.94000 4.504
91.96000 4.529
91.98000 4.544
92.00000 4.431
92.02000 4.499
92.04000 4.423
92.06000 4.406
92.08000 4.484
92.10000 4.372
92.12000 4.376
92.14000 4.462
92.16000 4.507
92.18000 4.241
92.20000 4.244
92.22000 4.318
92.24000 4.273
92.26000 4.264
92.28000 4.389
92.30000 4.375
92.32000 4.451
92.34000 4.542
92.36000 4.413
92.38000 4.337
92.40000 4.395
92.42000 4.527
92.44000 4.525
92.46000 4.548
92.48000 4.527
92.50000 4.632
92.52000 4.485
92.54000 4.397
92.56000 4.439
92.58000 4.519
92.60000 4.419
92.62000 4.363
92.64000 4.254
92.66000 4.400
92.68000 4.283
92.70000 4.433
92.72000 4.495
92.74000 4.360
92.76000 4.595
92.78000 4.457
92.80000 4.379
92.82000 4.491
92.84000 4.328
92.86000 4.380
92.88000 4.432
92.90000 4.343
92.92000 4.398
92.94000 4.456
92.96000 4.361
92.98000 4.412
93.00000 4.537
93.02000 4.561
93.04000 4.538
93.06000 4.533
93.08000 4.472
93.10000 4.615
93.12000 4.553
93.14000 4.639
93.16000 4.581
93.18000 4.510
93.20000 4.599
93.22000 4.517
93.24000 4.387
93.26000 4.307
93.28000 4.341
93.30000 4.502
93.32000 4.476
93.34000 4.323
93.36000 4.282
93.38000 4.246
93.40000 4.240
93.42000 4.231
93.44000 4.484
93.46000 4.355
93.48000 4.513
93.50000 4.511
93.52000 4.463
93.54000 4.500
93.56000 4.512
93.58000 4.554
93.60000 4.370
93.62000 4.283
93.64000 4.399
93.66000 4.439
93.68000 4.457
93.70000 4.467
93.72000 4.445
93.74000 4.428
93.76000 4.507
93.78000 4.637
93.80000 4.431
93.82000 4.572
93.84000 4.564
93.86000 4.497
93.88000 4.475
93.90000 4.372
93.92000 4.470
93.94000 4.444
93.96000 4.336
93.98000 4.373
94.00000 4.553
94.02000 4.488
94.04000 4.160
94.06000 4.241
94.08000 4.449
94.10000 4.550
94.12000 4.430
94.14000 4.549
94.16000 4.635
94.18000 4.456
94.20000 4.448
94.22000 4.542
94.24000 4.591
94.26000 4.507
94.28000 4.496
94.30000 4.435
94.32000 4.500
94.34000 4.652
94.36000 4.586
94.38000 4.619
94.40000 4.440
94.42000 4.408
94.44000 4.477
94.46000 4.530
94.48000 4.258
94.50000 4.300
94.52000 4.443
94.54000 4.380
94.56000 4.330
94.58000 4.489
94.60000 4.514
94.62000 4.693
94.64000 4.672
94.66000 4.533
94.68000 4.275
94.70000 4.474
94.72000 4.587
94.74000 4.549
94.76000 4.499
94.78000 4.351
94.80000 4.280
94.82000 4.476
94.84000 4.429
94.86000 4.404
94.88000 4.458
94.90000 4.558
94.92000 4.493
94.94000 4.340
94.96000 4.386
94.98000 4.731
95.00000 10.093
